X-Lamb;Y-Lamb;Hauteur (m);Epaisseur (m);Densite (%);Leaf wall area (m².ha-1);Pourcentage de la dose homologuée à appliquer
766655.36;6284839.27;1.2;0.71;78;9600;100.8
766658.31;6284837.83;1.37;0.46;77;10960;99.8
766660.61;6284836.54;1.04;0.45;52;8320;52.9
766663.27;6284835.21;1.26;0.34;75;10080;87
766665.96;6284833.8;1.23;0.31;82;9840;96.1
766668.25;6284832.66;1.19;0.42;82;9520;97.6
766671.08;6284831.12;1.37;0.49;77;10960;100.8
766673.33;6284829.93;1.41;0.38;81;11280;106.7
766675.81;6284828.6;1.22;0.39;83;9760;100.1
766678.63;6284827.12;1.26;0.4;72;10080;84.1
766680.9;6284825.88;1.22;0.53;75;9760;90.8
766683.61;6284824.42;1.12;0.49;76;8960;86.4
766685.99;6284823.17;1.17;0.29;81;9360;90.7
766688.6;6284821.8;1.44;0.46;80;11520;110.8
766690.96;6284820.59;1.24;0.29;83;9920;97.7
766693.92;6284819.01;1.07;0.71;60;8560;67.9
766695.89;6284818.06;1.31;0.36;70;10480;82.4
766699.08;6284816.35;0.99;0.41;68;7920;67.7
766701.31;6284815.21;1.34;0.46;78;10720;99.9
766703.64;6284813.93;1.46;0.69;85;11680;131
766705.01;6284813.16;1.09;1.01;67;8720;86.2
766708.76;6284811.17;1.25;0.31;82;10000;97.2
766710.92;6284810.07;1.09;0.45;80;8720;90.1
766712.62;6284809.32;1.19;0.48;39;9520;52.2
766715.83;6284807.56;1.24;0.3;74;9920;83.4
766718.7;6284806.08;0.84;0.58;40;6720;39.9
766721.2;6284804.73;1.23;0.36;73;9840;83.1
766723.14;6284803.68;1.24;0.39;70;9920;80
766726.07;6284802.11;1.14;0.53;64;9120;71.3
766728.37;6284800.92;1.22;0.47;73;9760;85.8
766730.65;6284799.71;1.14;0.43;49;9120;54.3
766733.24;6284798.29;1.39;0.35;69;11120;88.3
766735.96;6284796.82;1.29;0.39;74;10320;88.4
766738.72;6284795.36;1.14;0.36;72;9120;77.7
766740.97;6284794.21;1.25;0.37;82;10000;99.2
766743.45;6284792.84;1.41;0.33;70;11280;90.8
766746.03;6284791.46;1.13;0.4;69;9040;74.2
766748.34;6284790.33;1.07;0.4;35;8560;42.7
766751.48;6284788.69;1.14;0.43;66;9120;71.4
766754.04;6284787.29;1.22;0.41;78;9760;92
766756.03;6284786.15;1.3;0.3;85;10400;105.1
766758.36;6284784.9;1.02;0.61;68;8160;73.7
766761.13;6284783.37;1.33;0.35;82;10640;102.9
766763.56;6284782.18;1.38;0.36;82;11040;106.1
766765.93;6284780.86;1.3;0.43;76;10400;93.4
766768.79;6284779.35;1.19;0.42;71;9520;80
766770.52;6284778.48;1.31;0.41;67;10480;80.5
766774.21;6284776.5;0.99;0.32;73;7920;71.9
766776.43;6284775.3;1.31;0.39;84;10480;107
766778.58;6284774.16;1.33;0.47;80;10640;103.4
766781.48;6284772.62;1.32;0.5;76;10560;96.7
766783.68;6284771.51;1.53;0.28;83;12240;120
766786.38;6284770.02;1.15;0.32;72;9200;77.1
766788.67;6284768.8;1.23;0.44;67;9840;76.6
766791.69;6284767.27;1.18;0.44;72;9440;81.6
766794.12;6284766;0.97;0.42;66;7760;64.9
766795.96;6284765.11;1.2;0.33;74;9600;82.4
766799.15;6284763.38;1.06;0.44;61;8480;62.7
766801.38;6284762.18;1.52;0.34;71;12160;103.6
766804.01;6284760.85;1.09;0.34;68;8720;69.9
766806.94;6284759.26;1.17;0.36;66;9360;70.9
766809.33;6284757.97;1.02;0.37;63;8160;62.1
766811.99;6284756.6;1.12;0.29;65;8960;66.1
766813.98;6284755.59;1.24;0.25;69;9920;74.9
766810.51;6284753.48;0.67;0.83;70;5360;68.1
766806.83;6284753.65;1.05;0.73;87;8400;110.1
766803.98;6284755.18;1.3;0.58;76;10400;98.3
766801.62;6284756.46;1.31;0.41;75;10480;91.6
766799.03;6284757.79;1.12;0.68;67;8960;78.3
766796.45;6284759.26;1.05;0.38;73;8400;75.9
766794.13;6284760.47;1.19;0.42;78;9520;90.8
766791.39;6284761.88;1.37;0.24;74;10960;89.2
766789.61;6284762.83;1.5;0.4;76;12000;110.2
766786.47;6284764.48;1.32;0.46;73;10560;90.3
766783.91;6284765.79;1.19;0.49;81;9520;98.2
766781.82;6284766.85;1.08;0.4;72;8640;76.2
766778.73;6284768.53;1.09;0.44;68;8720;72.3
766776.47;6284769.74;1.74;0.37;77;13920;142.5
766774.42;6284770.85;1.72;0.35;66;13760;120.5
766771.5;6284772.41;1.51;0.36;81;12080;117.4
766769.28;6284773.62;1.12;0.32;74;8960;78.6
766766.56;6284775.03;1.24;0.4;67;9920;76
766763.92;6284776.45;1.25;0.31;65;10000;71.5
766762.07;6284777.41;0.94;0.35;55;7520;51.1
766758.91;6284779.19;1.12;0.46;75;8960;84
766756.7;6284780.25;1.17;0.52;60;9360;67.2
766753.86;6284781.72;1.23;0.31;72;9840;80.2
766751.12;6284783.13;1.06;0.44;59;8480;60.4
766749.11;6284784.29;1.3;0.5;75;10400;93.9
766746.34;6284785.83;1.23;0.36;74;9840;84.6
766743.95;6284787.07;1.2;0.51;74;9600;87.6
766741.2;6284788.57;1.26;0.28;75;10080;85.2
766738.67;6284789.85;1.27;0.3;76;10160;87.9
766736.35;6284791.07;1.25;0.21;78;10000;87.4
766733.41;6284792.71;1.14;0.27;66;9120;67.6
766731.32;6284793.88;1.2;0.24;72;9600;77.1
766728.78;6284795.24;1.19;0.4;74;9520;83.9
766726.41;6284796.47;1.19;0.36;73;9520;81.3
766723.48;6284797.95;1.21;0.29;73;9680;80.3
766721.09;6284799.25;1.15;0.37;70;9200;75.6
766718.38;6284800.66;1.31;0.25;81;10480;96.6
766715.74;6284801.97;1.3;0.42;76;10400;93
766713.32;6284803.11;1.21;0.35;75;9680;84.9
766710.34;6284804.83;1.26;0.28;72;10080;80.7
766708.1;6284805.97;1.62;0.42;78;12960;129.2
766705.19;6284807.6;0.92;0.52;59;7360;57.5
766702.72;6284808.89;1.38;0.47;68;11040;89.3
766700.29;6284810.18;1.25;0.37;79;10000;94
766697.85;6284811.42;1.33;0.26;79;10640;94.5
766695.53;6284812.64;1.26;0.26;83;10080;97.8
766692.84;6284814.06;1.09;0.3;79;8720;84.1
766689.67;6284815.73;1.08;0.39;69;8640;72
766687.92;6284816.65;1.08;0.41;73;8640;77.9
766684.58;6284818.39;1.24;0.28;63;9920;68.3
766682.8;6284819.36;1.21;0.26;73;9680;79.4
766680.4;6284820.55;1.2;0.25;73;9600;78.7
766677.4;6284822.06;1.09;0.46;62;8720;65.3
766674.97;6284823.43;1.14;0.31;75;9120;80.7
766672.52;6284824.81;1.19;0.37;67;9520;73.2
766670.06;6284826.02;1.1;0.56;74;8800;84.4
766667.4;6284827.44;1.19;0.51;67;9520;76.8
766665.15;6284828.67;1.11;0.6;73;8880;84.5
766661.82;6284830.43;1.07;0.24;74;8560;74.4
766659.91;6284831.45;0.85;0.28;73;6800;65.7
766657.37;6284832.63;1.01;0.39;71;8080;71.8
766654.62;6284833.99;1.05;0.47;66;8400;68.9
766652.24;6284833.95;1.57;0.53;74;12560;120.2
766651.31;6284830.4;0.95;0.38;57;7600;53.8
766653.97;6284828.95;1.16;0.3;66;9280;69.1
766656.97;6284827.26;1.33;0.28;69;10640;81.1
766659.37;6284826.01;1.16;0.39;71;9280;77.9
766662.06;6284824.46;1.19;0.32;70;9520;76
766664.42;6284823.25;1.56;0.41;76;12480;117.7
766667.66;6284821.6;1.1;0.35;61;8800;62.1
766669.68;6284820.52;1.14;0.31;73;9120;77.8
766672.36;6284819.21;1.27;0.39;71;10160;82.8
766674.92;6284817.89;1.34;0.36;80;10720;100.2
766677.67;6284816.48;1.11;0.34;71;8880;74.6
766680.18;6284815.13;1.28;0.33;73;10240;84.5
766682.82;6284813.75;1.16;0.39;75;9280;83.8
766684.96;6284812.64;1.38;0.32;72;11040;89.9
766688.47;6284810.75;1.04;0.21;59;8320;55.3
766690.27;6284809.8;1.11;0.48;62;8880;66.5
766692.5;6284808.67;1.4;0.41;79;11200;103.4
766695.07;6284807.29;1.51;0.3;79;12080;112.4
766697.7;6284805.9;1.45;0.31;76;11600;101.7
766700.61;6284804.36;1.37;0.39;71;10960;89.8
766702.52;6284803.45;1.14;0.31;79;9120;86.7
766705.32;6284801.93;0.95;0.28;63;7600;57.9
766707.53;6284800.8;1.23;0.35;79;9840;92.3
766709.79;6284799.52;1.24;0.27;71;9920;78.2
766712.09;6284798.23;1.18;0.36;68;9440;73.9
766714.4;6284796.89;1.03;0.28;68;8240;66.2
766716.82;6284795.67;1.16;0.3;73;9280;78.4
766719.71;6284794.24;1.2;0.38;70;9600;78
766722.35;6284792.91;1.36;0.29;76;10880;92
766724.6;6284791.7;1.07;0.5;72;8560;78.5
766727.45;6284790.21;1.08;0.35;73;8640;76.3
766729.98;6284788.91;1.25;0.29;78;10000;89.8
766732.58;6284787.53;1.11;0.29;73;8880;76
766734.74;6284786.35;0.93;0.32;55;7440;50.3
766737.73;6284784.64;1.09;0.23;76;8720;77.8
766740.1;6284783.44;1.27;0.49;70;10160;84.1
766742.83;6284781.97;1.15;0.46;67;9200;73.9
766745.17;6284780.7;1.48;0.35;73;11840;102.2
766747.77;6284779.24;1.12;0.3;70;8960;72.6
766750.84;6284777.61;1.42;0.34;68;11360;89.6
766753.04;6284776.42;1.5;0.37;79;12000;113.6
766755.45;6284775.16;0.99;0.33;63;7920;60.2
766758.47;6284773.57;1.11;0.34;74;8880;78.7
766760.95;6284772.31;1.57;0.38;78;12560;121
766763.23;6284771.12;1.28;0.25;69;10240;76.5
766765.74;6284769.76;1;0.34;65;8000;63
766769.13;6284767.95;1.28;0.3;67;10240;75.4
766771.05;6284766.93;1.22;0.4;81;9760;96.8
766773.66;6284765.46;1.5;0.39;72;12000;104.3
766776.18;6284764.1;1.14;0.4;71;9120;77.4
766779.08;6284762.57;1.2;0.29;81;9600;92.3
766781.43;6284761.37;1.29;0.31;73;10320;84.4
766784.43;6284759.84;1.22;0.42;74;9760;85.9
766786.75;6284758.67;1.12;0.32;82;8960;90.8
766789.24;6284757.32;1.41;0.41;76;11280;100.4
766791.86;6284755.95;1.16;0.32;78;9280;86.4
766794.45;6284754.61;1.05;0.32;71;8400;71.7
766797.12;6284753.19;1.3;0.33;76;10400;90.2
766799.5;6284751.97;1.36;0.36;79;10880;99.4
766801.35;6284751;1.15;0.52;86;9200;106.3
766792.4;6284750.13;0.84;0.49;76;6720;74.1
766790.13;6284751.25;1.16;0.44;79;9280;91.6
766787.8;6284752.45;1.24;0.34;68;9920;75.8
766785.28;6284753.83;1.11;0.54;79;8880;92.3
766782.87;6284755.09;1.19;0.47;84;9520;103
766780.33;6284756.58;1.29;0.51;81;10320;104.4
766777.56;6284758.04;1.09;0.48;68;8720;73.3
766775.86;6284758.98;1.5;0.33;66;12000;94.9
766772.39;6284760.7;1.26;0.3;67;10080;74.3
766770.25;6284761.82;1.17;0.58;82;9360;102
766767.48;6284763.25;1.44;0.3;77;11520;101.7
766765;6284764.54;1.21;0.23;74;9680;80.1
766762.6;6284765.81;1.31;0.32;81;10480;98.9
766760.29;6284767.08;1.25;0.43;75;10000;89.2
766757.53;6284768.56;1.36;0.36;75;10880;92.6
766755.03;6284769.87;1.1;0.41;73;8800;78.7
766752.27;6284771.29;1.25;0.36;71;10000;81
766749.99;6284772.59;1.32;0.59;77;10560;101.5
766747.55;6284773.93;1.03;0.46;77;8240;82.9
766744.97;6284775.29;1.18;0.41;83;9440;98.5
766742.37;6284776.58;1.47;0.58;59;11760;90.5
766739.77;6284778.02;1.28;0.38;79;10240;95.8
766737.41;6284779.38;1.09;0.41;72;8720;76.9
766735.14;6284780.5;1.06;0.33;76;8480;79.1
766732.49;6284781.91;1.14;0.47;80;9120;93.2
766729.78;6284783.25;1.35;0.56;70;10800;91.1
766727.29;6284784.52;1.29;0.44;58;10320;70.8
766725.08;6284785.66;1.17;0.54;63;9360;71.4
766721.63;6284787.47;1.29;0.54;78;10320;99.9
766719.58;6284788.58;1.13;0.27;71;9040;73.6
766716.63;6284790.12;1.13;0.35;76;9040;82.8
766713.95;6284791.56;1.2;0.33;68;9600;73.9
766711.84;6284792.69;1.1;0.26;63;8800;62.4
766709.08;6284794.25;1.09;0.28;71;8720;72.3
766706.41;6284795.69;1.11;0.57;62;8880;68.6
766704.02;6284797.02;1.11;0.33;68;8880;70.4
766701.63;6284798.27;1.29;0.33;80;10320;96.5
766698.66;6284799.76;1.14;0.3;83;9120;92.9
766696.09;6284801.14;1.04;0.45;61;8320;62.2
766693.62;6284802.42;1.47;0.35;72;11760;99.8
766690.86;6284803.84;1.3;0.29;75;10400;87.4
766688.19;6284805.31;1.12;0.34;77;8960;83.6
766685.85;6284806.5;1.14;0.29;75;9120;80.1
766683.19;6284807.94;1.34;0.38;79;10720;99
766680.95;6284809.09;1.21;0.32;82;9680;95.4
766678.06;6284810.59;1.29;0.42;80;10320;99.5
766675.52;6284811.97;1.2;0.41;74;9600;84.7
766672.95;6284813.36;1.08;0.46;85;8640;98.4
766670.34;6284814.74;1.07;0.49;67;8560;71.4
766667.59;6284816.19;1.29;0.32;79;10320;94.4
766665.11;6284817.37;1.06;0.37;77;8480;81.7
766663.42;6284818.21;1.1;0.27;64;8800;63.8
766659.7;6284820.23;0.96;0.43;46;7680;45.1
766657.41;6284821.52;1.02;0.4;74;8160;76.5
766654.94;6284822.8;1.02;0.53;73;8160;78.5
766652.12;6284824.26;1.13;0.47;79;9040;91.1
766650.27;6284825.05;0.8;0.44;34;6400;33.4
766647.05;6284823.97;1.07;0.48;70;8560;75.1
766647.58;6284820.79;1.33;0.43;75;10640;93.2
766650.83;6284819.09;1.19;0.33;75;9520;83.4
766652.42;6284818.32;1.3;0.35;75;10400;89.2
766655;6284816.93;1.15;0.31;72;9200;76.8
766657.63;6284815.53;1.42;0.28;86;11360;113.5
766660.44;6284814.08;1.05;0.28;68;8400;67
766662.36;6284813.05;1.17;0.34;78;9360;87.4
766665.6;6284811.3;1.12;0.77;74;8960;91.7
766667.48;6284810.31;1.27;0.37;80;10160;96.7
766670.07;6284808.97;1.02;1.27;13;8160;48.4
766672.84;6284807.52;1.31;0.37;79;10480;97.1
766675.49;6284806.2;1.1;0.73;62;8800;72
766677.09;6284805.34;1.14;1.07;42;9120;68.4
766679.95;6284803.74;1.24;0.43;72;9920;84.1
766682.45;6284802.51;1.04;0.25;60;8320;57.1
766684.89;6284801.25;1.27;0.28;68;10160;75.5
766687.42;6284799.92;1.13;0.34;77;9040;84
766689.81;6284798.63;1.23;0.26;67;9840;72.1
766692.61;6284797.22;1.23;0.45;74;9840;87.3
766694.72;6284796.01;1.04;0.32;75;8320;76.6
766697.77;6284794.39;1.09;0.26;28;8720;37.6
766700.16;6284793.17;1.06;0.49;74;8480;80.6
766702.58;6284791.84;1.22;0.23;76;9760;83.5
766704.87;6284790.55;1.06;0.48;73;8480;78.9
766707.03;6284789.47;1.31;0.36;74;10480;88.4
766709.91;6284787.9;0.95;0.41;73;7600;72.6
766712.24;6284786.66;0.95;0.35;69;7600;66.1
766714.68;6284785.43;0.88;0.28;71;7040;64.4
766717.06;6284784.17;1.13;0.27;72;9040;74.9
766720.13;6284782.51;1.11;0.43;68;8880;72.8
766722.27;6284781.41;1.44;0.47;78;11520;108.2
766724.89;6284780.06;1.19;0.4;78;9520;90.2
766727.51;6284778.65;1.11;0.44;58;8880;61
766730.73;6284776.94;1.11;0.42;69;8880;73.9
766732.71;6284775.96;1.12;0.55;70;8960;79.1
766735.19;6284774.56;1.16;0.3;67;9280;70.3
766738;6284773.08;1.16;0.25;74;9280;78.5
766740.34;6284771.95;1.55;0.34;77;12400;115.4
766742.85;6284770.57;1.51;0.33;73;12080;104.9
766744.93;6284769.54;1.1;0.48;61;8800;64.9
766748.21;6284767.72;1.16;0.38;77;9280;86.6
766750.76;6284766.29;1.41;0.35;83;11280;109.4
766753.38;6284764.85;1.24;0.34;72;9920;81.5
766755.88;6284763.53;1.11;0.39;63;8880;65.6
766758.5;6284762.09;1.19;0.36;69;9520;75.6
766760.88;6284760.83;1.26;0.38;78;10080;93.1
766763.45;6284759.47;1.14;0.55;77;9120;90.7
766765.98;6284758.21;1.21;0.4;78;9680;91.2
766768.42;6284756.84;1.16;0.32;71;9280;76.1
766771.14;6284755.48;1.36;0.39;82;10880;106.1
766773.64;6284754.11;1.14;0.38;69;9120;74.1
766776.25;6284752.8;1.14;0.45;73;9120;81.6
766778.23;6284751.75;1.32;0.28;70;10560;81.3
766781.66;6284749.95;1.22;0.41;67;9760;75.4
766784.01;6284748.71;1.04;0.36;60;8320;59.2
766785.97;6284747.2;1.14;0.6;74;9120;87.4
766656.83;6284841.32;1.49;0.44;74;11920;107.4
766659.59;6284839.99;1.11;0.38;60;8880;62
766661.95;6284838.65;1.38;0.37;72;11040;91.3
766664.49;6284837.38;1.48;0.37;75;11840;105.5
766667.19;6284835.98;1.21;0.51;56;9680;65.4
766669.37;6284834.89;1.6;0.42;76;12800;123.2
766672.19;6284833.37;1.16;0.33;74;9280;80.6
766674.5;6284832.15;1.17;0.31;78;9360;86.6
766677.25;6284830.66;1.01;0.41;64;8080;63.7
766679.41;6284829.53;1.3;0.35;77;10400;92.5
766681.98;6284828.14;1.42;0.5;57;11360;81.7
766684.57;6284826.73;1.14;0.47;54;9120;58.6
766686.58;6284825.64;1.25;0.52;71;10000;85.6
766689.86;6284823.93;1.55;0.46;72;12400;112.4
766692.29;6284822.68;1.34;0.98;60;10720;97.6
766694.76;6284821.4;1.35;0.64;75;10800;101.3
766697.35;6284820.05;1.69;0.49;59;13520;111.3
766699.63;6284818.89;1.45;0.59;70;11600;102.2
766702.77;6284817.24;1.12;0.96;68;8960;87.8
766705.13;6284815.98;1.13;0.39;58;9040;60.6
766707.02;6284814.9;1.24;0.39;67;9920;75.7
766709.9;6284813.39;1.3;0.39;69;10400;81.2
766711.71;6284812.47;1.24;0.8;62;9920;83
766714.62;6284811.04;1.66;0.61;63;13280;117.4
766717.43;6284809.58;1.2;0.92;54;9600;77.3
766719.22;6284808.64;1.27;0.66;75;10160;97.6
766721.84;6284807.35;1.07;0.28;45;8560;45.3
766724.6;6284805.74;1.59;0.36;77;12720;121.3
766726.8;6284804.51;1.21;0.5;73;9680;86.2
766729.51;6284803.14;1.12;0.43;75;8960;83.1
766731.96;6284801.86;1.4;0.4;70;11200;91.7
766734.35;6284800.52;1.01;0.41;61;8080;60.4
766736.58;6284799.36;1.09;0.44;40;8720;47
766739.62;6284797.73;1.36;0.47;66;10880;85.2
766741.93;6284796.53;1.35;0.44;63;10800;80.5
766745.07;6284794.84;1.25;0.3;68;10000;75.2
766746.69;6284793.95;1.24;0.31;55;9920;62.1
766749.77;6284792.39;1.12;0.31;77;8960;82.7
766752.3;6284791.06;1.09;0.35;58;8720;58.5
766754.68;6284789.78;1.29;0.5;86;10320;113.9
766757.37;6284788.27;1.31;0.33;71;10480;82.9
766759.57;6284787.09;1.2;0.55;77;9600;93.8
766761.63;6284785.9;1.19;0.52;45;9520;56.9
766765.08;6284784.19;1.46;0.41;73;11680;101.8
766766.72;6284783.27;1.1;0.41;37;8800;45.2
766770.19;6284781.43;1.66;0.27;74;13280;122.3
766772.54;6284780.24;1.63;0.39;63;13040;106.8
766774.58;6284779.11;1.4;0.38;67;11200;87.8
766776.93;6284777.82;1.15;0.46;49;9200;55.7
766780.03;6284776.22;1.54;0.28;73;12320;106.8
766782.37;6284774.97;1.38;0.35;77;11040;96.8
766784.88;6284773.69;1.49;0.43;81;11920;117.2
766787.68;6284772.17;1.17;0.33;61;9360;64.1
766790.16;6284770.86;1.29;0.27;77;10320;89.5
766792.29;6284769.77;1.38;0.39;73;11040;93.1
766795.24;6284768.23;1.53;0.41;69;12240;104.1
766797.41;6284767.15;1.18;0.43;67;9440;74.3
766800.31;6284765.57;1.57;0.37;67;12560;104.7
766802.91;6284764.18;1.2;0.43;65;9600;72.5
766805.43;6284762.9;1.37;0.32;67;10960;83.5
766807.69;6284761.74;1.06;0.58;27;8480;42.2
766811.02;6284759.88;1;0.36;64;8000;62.3
766813.12;6284758.83;1.12;0.42;78;8960;87.4
766815.64;6284757.52;1.26;0.55;79;10080;100.5
766815.88;6284756.19;1.1;0.59;55;8800;60.5
766806.94;6284756.43;1.37;0.46;40;10960;62.2
766805.14;6284757.41;1.42;0.31;79;11360;102.4
766802.58;6284758.79;1.04;0.62;47;8320;52.9
766800.25;6284759.97;1.41;0.51;58;11280;82
766797.67;6284761.43;1.16;0.37;68;9280;73.3
766794.95;6284762.87;1.12;0.29;72;8960;75
766792.65;6284764.05;1.54;0.33;76;12320;112.6
766790.28;6284765.27;1.16;0.38;78;9280;88.1
766787.93;6284766.54;1.57;0.46;71;12560;113.3
766784.93;6284768.07;1.42;0.46;68;11360;92.9
766782.64;6284769.26;1.49;0.4;75;11920;107.6
766780.1;6284770.59;1.31;0.43;65;10480;78.9
766777.74;6284771.92;1.43;0.36;76;11440;101.1
766775.21;6284773.25;1.18;0.38;73;9440;81.4
766772.49;6284774.72;1.26;0.46;69;10080;81.3
766769.45;6284776.34;1.33;0.32;67;10640;80
766767.93;6284777.15;1.44;0.44;80;11520;110.2
766764.91;6284778.76;1.46;0.38;79;11680;109.1
766763.18;6284779.67;1.33;0.31;69;10640;81.8
766759.96;6284781.46;1.46;0.33;66;11680;91
766757.39;6284782.72;1.51;0.48;70;12080;105.5
766755.01;6284783.94;1.56;0.46;77;12480;121
766752.52;6284785.19;1.14;0.41;52;9120;55.7
766750.21;6284786.53;1.05;0.45;35;8400;42.9
766746.67;6284788.49;1.52;0.36;55;12160;84.9
766745.38;6284789.17;1.45;0.5;66;11600;94.7
766742.64;6284790.64;1.29;0.55;57;10320;72.9
766739.54;6284792.23;1.34;0.36;68;10720;82.9
766737.72;6284793.2;1.45;0.6;37;11600;69.5
766735.16;6284794.57;1.44;0.46;58;11520;83.5
766732.52;6284796.08;1.18;0.43;63;9440;69.1
766729.95;6284797.46;1.28;0.31;79;10240;93.6
766728.1;6284798.45;1.03;0.44;44;8240;46.4
766724.65;6284800.14;1.1;0.37;59;8800;60.3
766722.16;6284801.51;1.25;0.35;64;10000;71.4
766719.54;6284802.89;1.16;0.28;72;9280;76.4
766716.96;6284804.16;1.61;0.37;75;12880;121
766714.45;6284805.34;1.38;0.52;66;11040;88.3
766711.72;6284806.93;1.46;0.33;76;11680;103.4
766709.44;6284808.1;1.05;0.36;61;8400;60.7
766706.62;6284809.69;1.42;0.35;63;11360;84.4
766704.24;6284810.95;1.29;0.35;58;10320;69
766701.55;6284812.34;1.35;0.35;76;10800;93.4
766699.05;6284813.62;1.39;0.42;76;11120;98.6
766697.1;6284814.66;1.41;0.5;71;11280;96.7
766693.21;6284816.6;1.3;0.31;53;10400;64.6
766691.55;6284817.55;1.57;0.38;71;12560;110.6
766689.28;6284818.78;1.36;0.69;60;10880;86.4
766686.41;6284820.25;1.5;0.21;77;12000;105.5
766683.51;6284821.81;1.04;0.45;53;8320;53.8
766680.92;6284823.12;1.33;0.42;70;10640;85.6
766678.85;6284824.17;1.38;0.45;73;11040;94.7
766676.25;6284825.6;1.68;0.33;76;13440;130.7
766673.69;6284827.04;1.54;0.52;73;12320;114.5
766670.87;6284828.42;1.67;0.44;68;13360;120.5
766668.29;6284829.79;1.31;0.41;62;10480;75.4
766665.94;6284831.09;1.45;0.37;60;11600;84.3
766663.06;6284832.63;1.44;0.41;63;11520;87.8
766660.9;6284833.73;1.03;0.43;47;8240;47.7
766658.44;6284834.88;1.3;0.38;57;10400;69.4
766655.95;6284836.17;1.12;0.42;60;8960;63.2
766652.92;6284835.48;1.6;0.71;81;12800;142.9
766653.03;6284832.29;1.36;0.71;73;10880;101.1
766655.44;6284830.98;1.56;0.46;72;12480;113.6
766657.42;6284829.86;1.09;0.5;62;8720;66.2
766660.94;6284827.99;1.18;0.42;65;9440;71.4
766663.4;6284826.58;1.45;0.31;71;11600;95.3
766665.67;6284825.42;1.67;0.38;83;13360;143.3
766668.37;6284824.03;1.6;0.32;74;12800;116.7
766670.89;6284822.71;1.41;0.56;63;11280;88.8
766673.55;6284821.41;1.48;0.46;72;11840;104.3
766676.31;6284820;1.46;0.43;69;11680;97.4
766678.72;6284818.76;1.21;0.38;68;9680;75.6
766681.46;6284817.28;1.53;0.28;78;12240;112.6
766683.94;6284815.98;1.38;0.24;74;11040;90.2
